wavelength transmittance
630.0 8.06290767128667e-06
631.0 7.757322828691953e-06
632.0 8.089414761822026e-06
633.0 8.18877223107963e-06
634.0 8.584916348200893e-06
635.0 9.13382218771676e-06
636.0 8.837051872239721e-06
637.0 9.23659428950624e-06
638.0 9.02051511020486e-06
639.0 9.418698638640866e-06
640.0 1.0976721523953089e-05
641.0 1.1376964234237645e-05
642.0 1.2475852251184418e-05
643.0 1.37319461191792e-05
644.0 1.5147014038875791e-05
645.0 1.6323053893274595e-05
646.0 1.87201478969756e-05
647.0 2.181024343919017e-05
648.0 2.407257174853102e-05
649.0 2.867040220009465e-05
650.0 3.422154697258196e-05
651.0 4.130128994296985e-05
652.0 5.1011515041556445e-05
653.0 6.293960893206035e-05
654.0 7.990299155834878e-05
655.0 0.00010255270406367775
656.0 0.00013316246471836216
657.0 0.00017244614019844572
658.0 0.0002239723741689335
659.0 0.0002910652211842305
660.0 0.0003748728837768231
661.0 0.0004815765583058202
662.0 0.0006174479339431621
663.0 0.0007921307482616781
664.0 0.0010179137936648117
665.0 0.0013194279894337664
666.0 0.0017254792891721901
667.0 0.002288536245873891
668.0 0.0030799819912105683
669.0 0.004156408072417474
670.0 0.005586782175971987
671.0 0.007485795897137026
672.0 0.009924573147938624
673.0 0.013059168791785418
674.0 0.01707020838190562
675.0 0.0221169594615764
676.0 0.02831292406991594
677.0 0.03591122682654796
678.0 0.04494220728903288
679.0 0.05532564331074675
680.0 0.06730467859748214
681.0 0.08124911332963837
682.0 0.09706042633681322
683.0 0.11498471297932703
684.0 0.13496109199402956
685.0 0.15652817534861685
686.0 0.1794851343487958
687.0 0.1542705507055229
688.0 0.20052185816901447
689.0 0.22045907391382205
690.0 0.2639424337156548
691.0 0.28945699837217753
692.0 0.33170522554885556
693.0 0.3646004698686544
694.0 0.39301466496184734
695.0 0.4218366509159949
696.0 0.4479918305350617
697.0 0.47718803637635027
698.0 0.5008523314021875
699.0 0.5217096314524148
700.0 0.5450175370294326
701.0 0.5645943100085922
702.0 0.5830651030047815
703.0 0.59991407571385
704.0 0.6161800294447675
705.0 0.63403690512979
706.0 0.6472722191405248
707.0 0.659922556210494
708.0 0.671098100703005
709.0 0.681708588751009
710.0 0.6918456166276329
711.0 0.7008567399498109
712.0 0.7085425497117586
713.0 0.7153194876128823
714.0 0.7214873434150503
715.0 0.7262919947926537
716.0 0.7313143817352027
717.0 0.725868226818896
718.0 0.720724019339921
719.0 0.7095028218180401
720.0 0.7341193952017091
721.0 0.7370522173931036
722.0 0.7505012288282334
723.0 0.7503578777654141
724.0 0.7528921259836073
725.0 0.7472555671555885
726.0 0.7541493008815532
727.0 0.7495320807066528
728.0 0.7395952835314437
729.0 0.7442346325040423
730.0 0.7588482501188344
731.0 0.7610071149260288
732.0 0.7544364869660374
733.0 0.7648759100555955
734.0 0.7669990173901953
735.0 0.7674375452870525
736.0 0.7674625751693995
737.0 0.7664831529223313
738.0 0.767814899674039
739.0 0.768447073625209
740.0 0.7681630540797754
741.0 0.7684512778031444
742.0 0.7689536352103118
743.0 0.7691003325412867
744.0 0.7693311501979007
745.0 0.769504445058977
746.0 0.7694422153788699
747.0 0.7693346062833405
748.0 0.7692604356447439
749.0 0.7687731732433807
750.0 0.7683293751427389
751.0 0.7683585106869265
752.0 0.7681742067086977
753.0 0.7679083729226944
754.0 0.7675653832349962
755.0 0.7671787255186664
756.0 0.7665083807588597
757.0 0.7657481324417478
758.0 0.765059540931407
759.0 0.7638459750524815
760.0 0.350022558151595
761.0 0.2624571472528598
762.0 0.5865484688992441
763.0 0.43851204004030403
764.0 0.4545382117784618
765.0 0.5995396506943705
766.0 0.6174496114435707
767.0 0.664231486058346
768.0 0.7049377253222661
769.0 0.7360133730351625
770.0 0.7456744237801178
771.0 0.7537147594789763
772.0 0.7529125839870452
773.0 0.7526146080053862
774.0 0.751678000135572
775.0 0.7514023082476685
776.0 0.7504745328935047
777.0 0.7496378540538692
778.0 0.7487343484912549
779.0 0.7475727545252306
780.0 0.7465094953064358
781.0 0.7454664321987193
782.0 0.7444315085541973
783.0 0.7433288461488795
784.0 0.7422978618207655
785.0 0.7410345140011565
786.0 0.7397422226501046
787.0 0.7379730817822685
788.0 0.7360789505772385
789.0 0.7343259181552753
790.0 0.7327087509232869
791.0 0.7314919363592993
792.0 0.7312566467670387
793.0 0.7283022429709842
794.0 0.7296993647644455
795.0 0.7304574846508992
796.0 0.7261860172086002
797.0 0.7253665156083651
798.0 0.7248860426420056
799.0 0.7237851014139577
800.0 0.721076398788217
801.0 0.7200177042340508
802.0 0.7209197477020697
803.0 0.7191852324243007
804.0 0.7187614292201652
805.0 0.7180975800063972
806.0 0.7176507042838798
807.0 0.7169323635084573
808.0 0.7158382245957693
809.0 0.7151873126301661
810.0 0.7106645016531712
811.0 0.7089721895311815
812.0 0.708730074325183
813.0 0.7061543206805362
814.0 0.6941698438823296
815.0 0.686883428636546
816.0 0.6821703420578912
817.0 0.6722628626649954
818.0 0.6599771074096288
819.0 0.6786857928732953
820.0 0.6716470390587223
821.0 0.6898665881072769
822.0 0.6803690923910586
823.0 0.632977146411677
824.0 0.67477814735837
825.0 0.6783317196544301
826.0 0.6649246875838738
827.0 0.6702560876010126
828.0 0.6452739632799309
829.0 0.638430046959621
830.0 0.6481317703664833
831.0 0.6418378940816668
832.0 0.626470800479153
833.0 0.6265255060171436
834.0 0.6107371585505054
835.0 0.6039253615754968
836.0 0.5862446772254577
837.0 0.570267497372973
838.0 0.5509321533637473
839.0 0.5302258378671563
840.0 0.5064191069009581
841.0 0.48016299759770853
842.0 0.4532624040399938
843.0 0.4246809670330672
844.0 0.39401720103350313
845.0 0.3631483292630213
846.0 0.33165179023150565
847.0 0.30072335041628395
848.0 0.2703111589645118
849.0 0.2408957580285079
850.0 0.21290273796202663
851.0 0.18636400448265233
852.0 0.16190223482700183
853.0 0.1397600908044952
854.0 0.11969029155118178
855.0 0.10176751640828945
856.0 0.08602023131893528
857.0 0.07211196073805684
858.0 0.060065179727234956
859.0 0.0497230674160813
860.0 0.040969390652588256
861.0 0.03362910613710556
862.0 0.02750155434241457
863.0 0.02231429992898142
864.0 0.0180210500710404
865.0 0.014529431791126552
866.0 0.011692674921391895
867.0 0.009387153611699301
868.0 0.007548311148983492
869.0 0.006076004339315016
870.0 0.004883979216738847
871.0 0.00392975006935911
872.0 0.003170720696058055
873.0 0.0025737151918739194
874.0 0.0021016925774434343
875.0 0.0017217630542623317
876.0 0.0014182846520689558
877.0 0.001180617768843296
878.0 0.0009891421843443466
879.0 0.0008360952007042258
880.0 0.0007178507124789678
881.0 0.0006308523137542189
882.0 0.0005570505621560412
883.0 0.0004970068159115238
884.0 0.0004480092702521952
885.0 0.00041502868894191395
886.0 0.00038684102108642174
887.0 0.00036417281764892026
888.0 0.0003456834823535903
889.0 0.0003260545785799676
890.0 0.000326908836317253
891.0 0.0003183904435995991
892.0 0.00031058062497641185
893.0 0.0003035615831259593
894.0 0.0002966137451976217
895.0 0.0002975224408578493
896.0 0.0002955669284297862
897.0 0.0002906515733615473
898.0 0.00027631842619336793
899.0 0.00026979266952990253
